# AWG_Sines.py
# offset 0.500, amplitude 0.500
#step through frequencies
# Loop    0 of  100
312    100  0.0178  1.1671  0.0189  1.1583
279    112  0.0164  1.1709  0.0179  1.1626
248    126  0.0032  1.1683 -0.0022  1.1581
222    141 -0.0098  1.1702 -0.0118  1.1575
198    158 -0.0114  1.1693 -0.0104  1.1531
176    178 -0.0127  1.1690 -0.0113  1.1503
156    200  0.0054  1.1693  0.0032  1.1445
140    224  0.0030  1.1639  0.0011  1.1367
125    251  0.0000  1.1685 -0.0018  1.1323
111    282 -0.0058  1.1693 -0.0059  1.1269
99    316 -0.0093  1.1718 -0.0058  1.1196
88    355 -0.0048  1.1664 -0.0111  1.1006
79    398 -0.0192  1.1665 -0.0183  1.0902
70    447  0.0025  1.1664  0.0010  1.0718
62    501 -0.0142  1.1654 -0.0094  1.0540
56    562 -0.0052  1.1650 -0.0009  1.0309
50    631 -0.0040  1.1665 -0.0031  1.0017
44    708 -0.0042  1.1667 -0.0074  0.9732
39    794 -0.0065  1.1656 -0.0064  0.9395
35    891 -0.0085  1.1689 -0.0131  0.9018
31   1000 -0.0048  1.1677 -0.0095  0.8622
28   1122 -0.0115  1.1675 -0.0132  0.8141
25   1259 -0.0100  1.1672 -0.0070  0.7641
22   1413 -0.0054  1.1666 -0.0079  0.7168
20   1585 -0.0035  1.1670 -0.0053  0.6648
18   1778 -0.0123  1.1639 -0.0097  0.6161
16   1995 -0.0070  1.1676 -0.0095  0.5659
14   2239 -0.0060  1.1693 -0.0097  0.5173
12   2512 -0.0077  1.1546 -0.0065  0.4740
11   2818 -0.0175  1.1577 -0.0095  0.4354
10   3162 -0.0110  1.1714 -0.0095  0.3891
9   3548 -0.0126  1.1686 -0.0087  0.3527
8   3981 -0.0057  1.1680 -0.0059  0.3189
7   4467  0.0228  1.1646 -0.0030  0.2892
6   5012 -0.0152  1.1666 -0.0105  0.2592
6   5623 -0.1139  1.1755 -0.0135  0.2263
5   6310 -0.0332  1.1679 -0.0081  0.2091
4   7079 -0.0170  1.1707 -0.0078  0.1876
4   7943 -0.0096  1.1636 -0.0071  0.1680
4   8913 -0.0120  1.1699 -0.0059  0.1509
3  10000 -0.0127  1.1668 -0.0055  0.1343
# Loop    1 of  100
312    100 -0.0365  1.1637 -0.0358  1.1563
279    112 -0.0305  1.1696 -0.0274  1.1611
248    126  0.0014  1.1704  0.0021  1.1600
222    141 -0.0057  1.1700 -0.0055  1.1560
198    158  0.0308  1.1650  0.0350  1.1505
176    178 -0.0123  1.1711 -0.0121  1.1525
156    200 -0.0181  1.1666 -0.0197  1.1442
140    224 -0.0216  1.1662 -0.0190  1.1372
125    251 -0.0154  1.1699 -0.0217  1.1341
111    282 -0.0111  1.1689 -0.0100  1.1256
99    316 -0.0165  1.1665 -0.0139  1.1154
88    355 -0.0195  1.1664 -0.0182  1.1025
79    398 -0.0165  1.1664 -0.0171  1.0898
70    447  0.0007  1.1661 -0.0006  1.0718
62    501 -0.0058  1.1643 -0.0062  1.0524
56    562 -0.0157  1.1685 -0.0149  1.0332
50    631 -0.0118  1.1652 -0.0135  1.0046
44    708 -0.0070  1.1662 -0.0069  0.9734
39    794 -0.0133  1.1686 -0.0106  0.9387
35    891 -0.0011  1.1686 -0.0032  0.9025
31   1000 -0.0018  1.1670 -0.0030  0.8584
28   1122 -0.0041  1.1677 -0.0082  0.8146
25   1259 -0.0051  1.1680 -0.0016  0.7668
22   1413 -0.0090  1.1636 -0.0079  0.7167
20   1585 -0.0040  1.1676 -0.0107  0.6673
18   1778 -0.0027  1.1658 -0.0070  0.6157
16   1995 -0.0062  1.1648 -0.0063  0.5667
14   2239 -0.0167  1.1651 -0.0092  0.5184
12   2512 -0.0083  1.1710 -0.0092  0.4696
11   2818 -0.0208  1.1760 -0.0115  0.4291
10   3162 -0.0048  1.1685 -0.0081  0.3888
9   3548 -0.0024  1.1690 -0.0076  0.3527
8   3981 -0.0067  1.1677 -0.0067  0.3193
7   4467 -0.0182  1.1700 -0.0073  0.2892
6   5012 -0.0317  1.1732 -0.0104  0.2597
6   5623  0.0824  1.1784 -0.0049  0.2331
5   6310 -0.0193  1.1683 -0.0022  0.2085
4   7079 -0.0040  1.1691 -0.0080  0.1874
4   7943 -0.0192  1.1690 -0.0081  0.1678
4   8913 -0.0073  1.1748 -0.0067  0.1512
3  10000 -0.0184  1.1678 -0.0085  0.1348
# Loop    2 of  100
312    100  0.0038  1.1715  0.0022  1.1646
279    112  0.0005  1.1697 -0.0035  1.1604
248    126 -0.0138  1.1682 -0.0155  1.1587
222    141 -0.0065  1.1678 -0.0064  1.1544
198    158 -0.0001  1.1653  0.0003  1.1498
176    178  0.0061  1.1646  0.0053  1.1434
156    200  0.0077  1.1691  0.0060  1.1453
140    224 -0.0240  1.1692 -0.0209  1.1407
125    251 -0.0053  1.1659 -0.0074  1.1300
111    282 -0.0010  1.1667 -0.0008  1.1231
99    316 -0.0127  1.1694 -0.0109  1.1179
88    355 -0.0047  1.1678 -0.0038  1.1042
79    398 -0.0187  1.1669 -0.0188  1.0902
70    447 -0.0208  1.1677 -0.0123  1.0741
62    501 -0.0068  1.1658 -0.0082  1.0546
56    562 -0.0117  1.1685 -0.0080  1.0329
50    631 -0.0054  1.1674 -0.0002  1.0049
44    708 -0.0081  1.1676 -0.0065  0.9749
39    794 -0.0017  1.1670 -0.0053  0.9414
35    891 -0.0130  1.1666 -0.0126  0.9034
31   1000 -0.0124  1.1694 -0.0098  0.8604
28   1122 -0.0095  1.1697 -0.0102  0.8168
25   1259 -0.0106  1.1703 -0.0077  0.7637
22   1413 -0.0109  1.1669 -0.0089  0.7157
20   1585 -0.0082  1.1701 -0.0056  0.6663
18   1778 -0.0124  1.1672 -0.0107  0.6145
16   1995 -0.0087  1.1726 -0.0078  0.5665
14   2239 -0.0099  1.1698 -0.0064  0.5189
12   2512 -0.0014  1.1716 -0.0083  0.4728
11   2818 -0.0031  1.1627 -0.0061  0.4294
10   3162 -0.0032  1.1712 -0.0088  0.3898
9   3548 -0.0050  1.1643 -0.0073  0.3525
8   3981 -0.0048  1.1655 -0.0081  0.3177
7   4467  0.0031  1.1658 -0.0049  0.2895
6   5012 -0.0042  1.1677 -0.0094  0.2598
6   5623 -0.0482  1.1690 -0.0112  0.2335
5   6310  0.0105  1.1658 -0.0084  0.2104
4   7079 -0.0041  1.1693 -0.0070  0.1874
4   7943 -0.0183  1.1642 -0.0090  0.1683
4   8913 -0.0136  1.1709 -0.0072  0.1516
3  10000 -0.0169  1.1659 -0.0072  0.1345
# Loop    3 of  100
312    100  0.0231  1.1642  0.0239  1.1561
279    112  0.0164  1.1712  0.0163  1.1612
248    126 -0.0280  1.1738 -0.0304  1.1632
222    141 -0.0206  1.1686 -0.0195  1.1558
198    158 -0.0020  1.1675 -0.0010  1.1520
176    178 -0.0094  1.1672 -0.0080  1.1478
156    200 -0.0145  1.1669 -0.0166  1.1435
140    224 -0.0038  1.1736 -0.0002  1.1436
125    251 -0.0167  1.1709 -0.0179  1.1368
111    282 -0.0109  1.1679 -0.0112  1.1239
99    316 -0.0017  1.1711 -0.0036  1.1198
88    355  0.0132  1.1656  0.0185  1.1028
79    398  0.0075  1.1672  0.0086  1.0916
70    447 -0.0135  1.1704 -0.0106  1.0749
62    501 -0.0031  1.1658 -0.0033  1.0542
56    562 -0.0144  1.1655 -0.0133  1.0321
50    631 -0.0132  1.1676 -0.0104  1.0060
44    708 -0.0094  1.1639 -0.0112  0.9730
39    794 -0.0041  1.1648 -0.0046  0.9398
35    891 -0.0055  1.1669 -0.0091  0.9010
31   1000 -0.0037  1.1682 -0.0064  0.8602
28   1122 -0.0107  1.1673 -0.0122  0.8146
25   1259 -0.0090  1.1676 -0.0054  0.7648
22   1413 -0.0020  1.1670 -0.0056  0.7173
20   1585 -0.0075  1.1693 -0.0060  0.6676
18   1778  0.0009  1.1684 -0.0069  0.6152
16   1995 -0.0074  1.1673 -0.0087  0.5669
14   2239 -0.0014  1.1787 -0.0084  0.5191
12   2512 -0.0015  1.1879 -0.0041  0.4732
11   2818 -0.0170  1.1642 -0.0092  0.4325
10   3162 -0.0110  1.1719 -0.0063  0.3909
9   3548 -0.0083  1.1673 -0.0085  0.3517
8   3981 -0.0005  1.1689 -0.0081  0.3199
7   4467 -0.0204  1.1645 -0.0114  0.2887
6   5012 -0.0209  1.1667 -0.0042  0.2596
6   5623 -0.0839  1.1865 -0.0195  0.2309
5   6310 -0.0065  1.1700 -0.0096  0.2098
4   7079 -0.0024  1.1663 -0.0070  0.1879
4   7943 -0.0102  1.1658 -0.0083  0.1686
4   8913 -0.0210  1.1705 -0.0087  0.1498
3  10000 -0.0142  1.1656 -0.0080  0.1352
# Loop    4 of  100
312    100 -0.0329  1.1660 -0.0320  1.1590
279    112 -0.0257  1.1674 -0.0228  1.1576
248    126  0.0046  1.1716  0.0034  1.1610
222    141 -0.0063  1.1689 -0.0062  1.1558
198    158  0.0476  1.1687  0.0475  1.1532
176    178 -0.0115  1.1689 -0.0098  1.1506
156    200 -0.0204  1.1675 -0.0212  1.1448
140    224  0.0141  1.1658  0.0137  1.1377
125    251 -0.0109  1.1677 -0.0127  1.1335
111    282 -0.0056  1.1700 -0.0038  1.1266
99    316 -0.0015  1.1693  0.0006  1.1162
88    355 -0.0090  1.1660 -0.0081  1.1028
79    398  0.0080  1.1665  0.0075  1.0924
70    447 -0.0108  1.1673 -0.0073  1.0741
62    501 -0.0040  1.1646 -0.0008  1.0541
56    562 -0.0158  1.1647 -0.0087  1.0320
50    631 -0.0042  1.1668 -0.0068  1.0041
44    708 -0.0110  1.1674 -0.0092  0.9754
39    794 -0.0002  1.1678 -0.0035  0.9399
35    891 -0.0130  1.1683 -0.0126  0.9032
31   1000 -0.0062  1.1684 -0.0106  0.8628
28   1122 -0.0077  1.1663 -0.0057  0.8144
25   1259  0.0002  1.1653 -0.0078  0.7657
22   1413 -0.0077  1.1702 -0.0073  0.7182
20   1585 -0.0115  1.1671 -0.0106  0.6631
18   1778 -0.0061  1.1704 -0.0052  0.6162
16   1995 -0.0045  1.1631 -0.0059  0.5669
14   2239 -0.0030  1.1721 -0.0081  0.5163
12   2512 -0.0114  1.1680 -0.0094  0.4811
11   2818 -0.0062  1.1727 -0.0033  0.4286
10   3162 -0.0042  1.1679 -0.0052  0.3896
9   3548 -0.0134  1.1699 -0.0083  0.3531
8   3981 -0.0138  1.1676 -0.0079  0.3190
7   4467  0.0084  1.1612 -0.0063  0.2894
6   5012 -0.0332  1.1672 -0.0144  0.2591
6   5623 -0.0873  1.1495 -0.0027  0.2311
5   6310 -0.0177  1.1665 -0.0063  0.2097
4   7079 -0.0117  1.1701 -0.0071  0.1879
4   7943 -0.0181  1.1655 -0.0080  0.1695
4   8913 -0.0100  1.1754 -0.0079  0.1503
3  10000 -0.0128  1.1634 -0.0071  0.1354
# Loop    5 of  100
312    100 -0.0271  1.1683 -0.0282  1.1605
279    112 -0.0241  1.1684 -0.0252  1.1600
248    126 -0.0059  1.1688 -0.0058  1.1585
222    141 -0.0085  1.1670 -0.0080  1.1544
198    158 -0.0030  1.1698 -0.0036  1.1542
176    178 -0.0129  1.1704 -0.0128  1.1510
156    200 -0.0111  1.1645 -0.0127  1.1419
140    224 -0.0021  1.1699  0.0016  1.1404
125    251 -0.0170  1.1704 -0.0173  1.1362
111    282 -0.0037  1.1686 -0.0069  1.1280
99    316 -0.0047  1.1695 -0.0021  1.1174
88    355 -0.0059  1.1682 -0.0043  1.1049
79    398 -0.0078  1.1691 -0.0033  1.0918
70    447  0.0049  1.1663  0.0108  1.0739
62    501 -0.0123  1.1672 -0.0117  1.0541
56    562 -0.0062  1.1686 -0.0026  1.0326
50    631  0.0007  1.1633  0.0023  1.0019
44    708 -0.0045  1.1680 -0.0046  0.9738
39    794 -0.0141  1.1649 -0.0123  0.9392
35    891 -0.0058  1.1679 -0.0085  0.9015
31   1000 -0.0030  1.1690 -0.0037  0.8617
28   1122 -0.0044  1.1716 -0.0056  0.8141
25   1259 -0.0057  1.1631 -0.0081  0.7657
22   1413 -0.0031  1.1682 -0.0048  0.7165
20   1585 -0.0015  1.1659 -0.0060  0.6655
18   1778 -0.0110  1.1698 -0.0094  0.6141
16   1995 -0.0085  1.1681 -0.0086  0.5657
14   2239 -0.0061  1.1675 -0.0049  0.5198
12   2512 -0.0113  1.1853 -0.0077  0.4705
11   2818 -0.0057  1.1763 -0.0086  0.4287
10   3162 -0.0052  1.1704 -0.0063  0.3902
9   3548 -0.0214  1.1716 -0.0098  0.3521
8   3981 -0.0147  1.1679 -0.0092  0.3195
7   4467  0.0000  1.1642 -0.0045  0.2900
6   5012 -0.0160  1.1656 -0.0116  0.2607
6   5623  0.0526  1.1715  0.0259  0.2257
5   6310 -0.0260  1.1676 -0.0128  0.2090
4   7079 -0.0100  1.1711 -0.0100  0.1877
4   7943 -0.0125  1.1683 -0.0068  0.1683
4   8913 -0.0083  1.1610 -0.0063  0.1515
3  10000 -0.0335  1.1727 -0.0085  0.1356
# Loop    6 of  100
312    100  0.0215  1.1651  0.0204  1.1585
279    112  0.0073  1.1659  0.0059  1.1564
248    126 -0.0192  1.1724 -0.0187  1.1617
222    141 -0.0113  1.1663 -0.0111  1.1542
198    158  0.0001  1.1668 -0.0003  1.1507
176    178 -0.0060  1.1664 -0.0042  1.1476
156    200 -0.0168  1.1683 -0.0134  1.1431
140    224 -0.0126  1.1675 -0.0096  1.1406
125    251 -0.0008  1.1677  0.0010  1.1340
111    282 -0.0021  1.1675 -0.0015  1.1245
99    316 -0.0135  1.1686 -0.0117  1.1177
88    355 -0.0222  1.1701 -0.0230  1.1054
79    398 -0.0132  1.1663 -0.0151  1.0896
70    447  0.0025  1.1691  0.0012  1.0750
62    501 -0.0099  1.1680 -0.0052  1.0549
56    562 -0.0005  1.1663  0.0003  1.0317
50    631  0.0011  1.1673 -0.0018  1.0062
44    708 -0.0097  1.1652 -0.0072  0.9729
39    794 -0.0047  1.1675 -0.0078  0.9384
35    891 -0.0164  1.1720 -0.0131  0.9041
31   1000 -0.0126  1.1693 -0.0118  0.8604
28   1122 -0.0079  1.1666 -0.0064  0.8159
25   1259 -0.0050  1.1689 -0.0069  0.7680
22   1413 -0.0066  1.1694 -0.0096  0.7172
20   1585 -0.0117  1.1665 -0.0081  0.6674
18   1778 -0.0048  1.1697 -0.0074  0.6160
16   1995 -0.0064  1.1712 -0.0075  0.5674
14   2239 -0.0127  1.1621 -0.0064  0.5223
12   2512 -0.0076  1.1950 -0.0082  0.4630
11   2818 -0.0028  1.1720 -0.0081  0.4272
10   3162 -0.0025  1.1674 -0.0039  0.3933
9   3548 -0.0032  1.1678 -0.0062  0.3536
8   3981 -0.0123  1.1677 -0.0083  0.3196
7   4467 -0.0122  1.1596 -0.0081  0.2914
6   5012  0.0169  1.1679 -0.0015  0.2606
6   5623 -0.0452  1.1672 -0.0264  0.2326
5   6310 -0.0011  1.1646 -0.0079  0.2089
4   7079  0.0007  1.1698 -0.0070  0.1879
4   7943 -0.0148  1.1601 -0.0069  0.1689
4   8913 -0.0144  1.1776 -0.0075  0.1507
3  10000 -0.0094  1.1691 -0.0091  0.1355
# Loop    7 of  100
312    100 -0.0327  1.1670 -0.0310  1.1600
279    112 -0.0166  1.1644 -0.0138  1.1549
248    126  0.0018  1.1708  0.0006  1.1591
222    141 -0.0035  1.1676 -0.0025  1.1548
198    158  0.0266  1.1658  0.0206  1.1508
176    178 -0.0105  1.1692 -0.0095  1.1487
156    200 -0.0209  1.1699 -0.0227  1.1477
140    224  0.0120  1.1644  0.0109  1.1376
125    251  0.0061  1.1701  0.0099  1.1366
111    282 -0.0025  1.1683 -0.0019  1.1251
99    316 -0.0040  1.1698 -0.0019  1.1166
88    355 -0.0045  1.1683 -0.0035  1.1048
79    398  0.0062  1.1696  0.0036  1.0927
70    447 -0.0110  1.1690 -0.0073  1.0746
62    501 -0.0030  1.1652  0.0019  1.0555
56    562 -0.0225  1.1703 -0.0176  1.0340
50    631 -0.0141  1.1658 -0.0134  1.0057
44    708 -0.0048  1.1685 -0.0070  0.9766
39    794 -0.0135  1.1676 -0.0119  0.9398
35    891 -0.0046  1.1661 -0.0044  0.9035
31   1000 -0.0034  1.1683 -0.0030  0.8613
28   1122 -0.0009  1.1678 -0.0049  0.8143
25   1259 -0.0117  1.1690 -0.0074  0.7684
22   1413 -0.0109  1.1685 -0.0109  0.7155
20   1585 -0.0120  1.1716 -0.0115  0.6652
18   1778 -0.0037  1.1677 -0.0077  0.6163
16   1995 -0.0072  1.1663 -0.0086  0.5664
14   2239 -0.0011  1.1750 -0.0078  0.5169
12   2512 -0.0117  1.1554 -0.0075  0.4723
11   2818 -0.0061  1.1742 -0.0052  0.4326
10   3162 -0.0074  1.1677 -0.0055  0.3903
9   3548 -0.0109  1.1656 -0.0095  0.3534
8   3981 -0.0077  1.1639 -0.0044  0.3200
7   4467 -0.0137  1.1665 -0.0057  0.2888
6   5012 -0.0307  1.1677 -0.0144  0.2607
6   5623  0.1132  1.1650  0.0091  0.2290
5   6310 -0.0109  1.1641 -0.0068  0.2107
4   7079  0.0013  1.1637 -0.0060  0.1874
4   7943 -0.0027  1.1648 -0.0063  0.1683
4   8913 -0.0102  1.1696 -0.0061  0.1512
3  10000 -0.0081  1.1694 -0.0081  0.1347
# Loop    8 of  100
312    100  0.0251  1.1640  0.0248  1.1559
279    112  0.0146  1.1703  0.0143  1.1611
248    126 -0.0309  1.1700 -0.0299  1.1608
222    141 -0.0071  1.1697 -0.0074  1.1568
198    158 -0.0024  1.1694 -0.0015  1.1531
176    178 -0.0265  1.1745 -0.0250  1.1566
156    200  0.0065  1.1701  0.0075  1.1465
140    224 -0.0249  1.1660 -0.0256  1.1373
125    251  0.0036  1.1705  0.0026  1.1342
111    282 -0.0104  1.1679 -0.0053  1.1266
99    316 -0.0050  1.1740 -0.0027  1.1219
88    355 -0.0098  1.1675 -0.0093  1.1055
79    398  0.0104  1.1688  0.0091  1.0914
70    447  0.0070  1.1681  0.0034  1.0743
62    501 -0.0111  1.1655 -0.0071  1.0551
56    562 -0.0006  1.1679 -0.0038  1.0347
50    631 -0.0032  1.1695 -0.0095  1.0059
44    708 -0.0048  1.1657 -0.0073  0.9741
39    794 -0.0138  1.1641 -0.0133  0.9394
35    891 -0.0012  1.1704 -0.0047  0.9021
31   1000 -0.0034  1.1695 -0.0059  0.8620
28   1122 -0.0120  1.1664 -0.0087  0.8143
25   1259 -0.0030  1.1659 -0.0037  0.7681
22   1413 -0.0085  1.1676 -0.0066  0.7197
20   1585 -0.0035  1.1640 -0.0065  0.6663
18   1778 -0.0075  1.1688 -0.0092  0.6174
16   1995 -0.0025  1.1682 -0.0073  0.5651
14   2239 -0.0110  1.1715 -0.0073  0.5189
12   2512 -0.0030  1.1846 -0.0082  0.4680
11   2818 -0.0054  1.1835 -0.0070  0.4308
10   3162 -0.0056  1.1657 -0.0063  0.3901
9   3548 -0.0050  1.1715 -0.0077  0.3521
8   3981 -0.0086  1.1652 -0.0047  0.3186
7   4467 -0.0107  1.1673 -0.0087  0.2890
6   5012  0.0101  1.1688 -0.0060  0.2602
6   5623 -0.0449  1.1734  0.0038  0.2258
5   6310 -0.0279  1.1648 -0.0088  0.2102
4   7079 -0.0088  1.1687 -0.0069  0.1879
4   7943 -0.0164  1.1656 -0.0070  0.1684
4   8913 -0.0146  1.1743 -0.0080  0.1508
3  10000 -0.0083  1.1668 -0.0070  0.1352
# Loop    9 of  100
312    100 -0.0267  1.1689 -0.0269  1.1605
279    112 -0.0333  1.1730 -0.0327  1.1643
248    126 -0.0014  1.1666  0.0000  1.1567
222    141 -0.0063  1.1688 -0.0059  1.1559
198    158 -0.0121  1.1667 -0.0119  1.1512
176    178 -0.0058  1.1650 -0.0061  1.1464
156    200  0.0091  1.1701  0.0071  1.1465
140    224 -0.0219  1.1690 -0.0190  1.1415
125    251 -0.0077  1.1667 -0.0091  1.1321
111    282 -0.0081  1.1686 -0.0068  1.1261
99    316  0.0013  1.1673  0.0012  1.1163
88    355 -0.0177  1.1684 -0.0191  1.1050
79    398 -0.0139  1.1697 -0.0080  1.0918
70    447 -0.0069  1.1642 -0.0079  1.0719
62    501 -0.0063  1.1660 -0.0027  1.0549
56    562 -0.0032  1.1666 -0.0041  1.0328
50    631 -0.0002  1.1675 -0.0055  1.0071
44    708 -0.0048  1.1662 -0.0050  0.9734
39    794 -0.0073  1.1651 -0.0102  0.9391
35    891 -0.0066  1.1652 -0.0050  0.9025
31   1000 -0.0024  1.1645 -0.0050  0.8614
28   1122 -0.0032  1.1692 -0.0060  0.8146
25   1259 -0.0028  1.1714 -0.0072  0.7671
22   1413 -0.0111  1.1668 -0.0083  0.7192
20   1585 -0.0019  1.1655 -0.0072  0.6674
18   1778 -0.0043  1.1699 -0.0044  0.6180
16   1995 -0.0051  1.1679 -0.0074  0.5690
14   2239 -0.0041  1.1618 -0.0050  0.5182
12   2512 -0.0061  1.1464 -0.0053  0.4693
11   2818 -0.0146  1.1697 -0.0075  0.4312
10   3162 -0.0066  1.1668 -0.0081  0.3920
9   3548 -0.0056  1.1667 -0.0052  0.3528
8   3981 -0.0035  1.1698 -0.0059  0.3190
7   4467  0.0092  1.1677 -0.0040  0.2899
6   5012 -0.0170  1.1655 -0.0050  0.2592
6   5623  0.0950  1.1681 -0.0102  0.2277
5   6310 -0.0145  1.1693 -0.0056  0.2091
4   7079 -0.0154  1.1673 -0.0077  0.1876
4   7943 -0.0068  1.1644 -0.0072  0.1688
4   8913 -0.0198  1.1750 -0.0085  0.1518
3  10000 -0.0156  1.1696 -0.0081  0.1354
# Loop   10 of  100
312    100  0.0155  1.1669  0.0142  1.1611
279    112  0.0102  1.1712  0.0074  1.1618
248    126 -0.0169  1.1720 -0.0165  1.1608
222    141 -0.0063  1.1679 -0.0063  1.1546
198    158 -0.0212  1.1662 -0.0249  1.1489
176    178 -0.0055  1.1652 -0.0076  1.1451
156    200 -0.0156  1.1672 -0.0133  1.1438
140    224 -0.0046  1.1710 -0.0089  1.1430
125    251 -0.0195  1.1708 -0.0181  1.1354
111    282 -0.0030  1.1670 -0.0027  1.1244
99    316  0.0029  1.1662  0.0033  1.1142
88    355 -0.0055  1.1690 -0.0053  1.1063
79    398  0.0048  1.1699  0.0029  1.0936
70    447 -0.0055  1.1667 -0.0022  1.0740
62    501 -0.0028  1.1662  0.0011  1.0562
56    562 -0.0051  1.1680 -0.0066  1.0325
50    631 -0.0034  1.1679 -0.0064  1.0062
44    708 -0.0033  1.1664 -0.0054  0.9749
39    794 -0.0059  1.1666 -0.0085  0.9409
35    891 -0.0013  1.1674 -0.0040  0.9032
31   1000 -0.0006  1.1680 -0.0045  0.8619
28   1122 -0.0139  1.1660 -0.0098  0.8147
25   1259 -0.0076  1.1684 -0.0121  0.7687
22   1413 -0.0062  1.1694 -0.0067  0.7151
20   1585 -0.0138  1.1681 -0.0088  0.6674
18   1778 -0.0027  1.1680 -0.0061  0.6151
16   1995 -0.0062  1.1702 -0.0079  0.5681
14   2239 -0.0100  1.1713 -0.0105  0.5196
12   2512 -0.0023  1.1662 -0.0060  0.4736
11   2818 -0.0050  1.1788 -0.0086  0.4312
10   3162 -0.0057  1.1715 -0.0061  0.3900
9   3548 -0.0068  1.1695 -0.0088  0.3540
8   3981  0.0007  1.1689 -0.0080  0.3189
7   4467  0.0043  1.1663 -0.0057  0.2897
6   5012 -0.0003  1.1664 -0.0031  0.2578
6   5623  0.1733  1.1675 -0.0004  0.2360
5   6310  0.0033  1.1601 -0.0057  0.2115
4   7079 -0.0037  1.1686 -0.0072  0.1891
4   7943 -0.0120  1.1662 -0.0068  0.1686
4   8913 -0.0103  1.1771 -0.0071  0.1514
3  10000 -0.0220  1.1693 -0.0083  0.1352
# Loop   11 of  100
312    100 -0.0086  1.1717 -0.0108  1.1642
279    112 -0.0253  1.1678 -0.0263  1.1605
248    126 -0.0330  1.1631 -0.0303  1.1514
222    141 -0.0102  1.1689 -0.0091  1.1557
198    158 -0.0060  1.1702 -0.0062  1.1545
176    178 -0.0133  1.1717 -0.0137  1.1534
